'Id: "" Comment: "" Operator: "Lab Manager" Anode: "Mo" Scantype: "Z" TimePerStep: "0.1"
-0.5000 438699.993
-0.4900 437939.993
-0.4800 436679.993
-0.4700 434109.994
-0.4600 439659.993
-0.4500 436119.994
-0.4400 435829.994
-0.4300 438749.993
-0.4200 432339.994
-0.4100 431319.994
-0.4000 435779.994
-0.3900 437599.993
-0.3800 434739.994
-0.3700 433929.994
-0.3600 436689.993
-0.3500 433569.994
-0.3400 435229.994
-0.3300 437549.993
-0.3200 434419.994
-0.3100 435259.994
-0.3000 437439.993
-0.2900 437869.993
-0.2800 434529.994
-0.2700 436509.993
-0.2600 434709.994
-0.2500 432969.994
-0.2400 434899.994
-0.2300 432389.994
-0.2200 436019.994
-0.2100 437949.993
-0.2000 437949.993
-0.1900 435849.994
-0.1800 437349.993
-0.1700 435199.994
-0.1600 439539.993
-0.1500 434519.994
-0.1400 436629.993
-0.1300 435779.994
-0.1200 437839.993
-0.1100 433019.994
-0.1000 440589.993
-0.0900 440729.993
-0.0800 432909.994
-0.0700 435749.994
-0.0600 439069.993
-0.0500 437979.993
-0.0400 437069.993
-0.0300 436549.993
-0.0200 430119.994
-0.0100 426019.994
0.0000 418459.994
0.0100 403369.994
0.0200 383859.994
0.0300 365809.995
0.0400 344199.995
0.0500 320469.995
0.0600 294339.996
0.0700 266309.996
0.0800 239429.996
0.0900 209889.997
0.1000 176649.997
0.1100 144879.998
0.1200 115089.998
0.1300 92299.999
0.1400 72569.999
0.1500 58649.999
0.1600 46629.999
0.1700 38329.999
0.1800 33500.000
0.1900 29950.000
0.2000 26210.000
0.2100 24490.000
0.2200 22100.000
0.2300 21030.000
0.2400 20140.000
0.2500 18260.000
0.2600 17220.000
0.2700 17280.000
0.2800 16080.000
0.2900 16040.000
0.3000 15250.000
0.3100 15030.000
0.3200 14610.000
0.3300 13840.000
0.3400 14300.000
0.3500 14400.000
0.3600 14140.000
0.3700 13810.000
0.3800 13060.000
0.3900 13520.000
0.4000 13930.000
0.4100 13230.000
0.4200 14140.000
0.4300 14110.000
0.4400 14730.000
0.4500 13240.000
0.4600 14850.000
0.4700 14670.000
0.4800 16110.000
0.4900 16920.000
0.5000 18110.000
0.5100 18900.000
0.5200 19600.000
0.5300 21530.000
0.5400 22640.000
0.5500 25950.000
0.5600 27170.000
0.5700 31850.000
0.5800 35309.999
0.5900 40459.999
0.6000 48749.999
0.6100 60139.999
0.6200 77359.999
0.6300 98939.999
0.6400 119429.998
0.6500 144089.998
0.6600 173249.997
0.6700 196839.997
0.6800 222189.997
0.6900 251099.996
0.7000 276849.996
0.7100 306689.995
0.7200 324769.995
0.7300 349759.995
0.7400 370219.994
0.7500 389929.994
0.7600 403689.994
0.7700 415189.994
0.7800 419159.994
0.7900 426049.994
0.8000 430569.994
0.8100 433369.994
0.8200 433519.994
0.8300 431809.994
0.8400 432409.994
0.8500 431049.994
0.8600 432439.994
0.8700 429879.994
0.8800 432939.994
0.8900 430969.994
0.9000 429989.994
0.9100 432439.994
0.9200 433599.994
0.9300 431779.994
0.9400 436329.993
0.9500 432509.994
0.9600 429609.994
0.9700 432349.994
0.9800 429109.994
0.9900 430159.994
1.0000 432219.994
